,bjdtdb,phase,flux_raw,flux_norm,sigma_raw,sigma_norm,bestfit_raw,bestfit_norm
0,2456423.0033813845,0.9503240837000249,20595.02500352589,0.9890246033947537,137.8541028769341,0.00632524936283078,20823.57196457499,1.0
1,2456423.003404535,0.9503302811158392,20772.867729151934,0.9966030869332719,138.14403370221834,0.006332440073737579,20843.671870487382,0.9999999999999998
2,2456423.0034276857,0.950336478656368,20873.884213343732,1.0014677758193373,138.59143284807476,0.006353064691200521,20843.29093491405,0.9999999999999998
3,2456423.003450836,0.9503426760722391,20741.45486462869,0.9950907422525475,137.846961486609,0.006318788964163076,20843.782364688755,1.0000000000000002
4,2456423.0034739864,0.9503488734881103,20879.223315395586,1.0006582110878182,138.37292163424,0.006336299809925755,20865.48941890731,1.0
5,2456423.0034971368,0.9503550709039814,20992.031985977526,1.0022734701968539,138.74831043080366,0.006329547190805411,20944.415481589607,1.0
6,2456423.0035202876,0.9503612684445102,20960.915979329606,1.0056760110393304,138.5050385256989,0.006349310844484272,20842.61307741371,0.9999999999999998
7,2456423.003543438,0.9503674658603813,20976.17971038336,1.00536910602783,138.55839412705626,0.0063451978033341105,20864.157834787013,1.0000000000000002
8,2456423.003566588,0.9503736631515949,20928.77933548057,1.0005575350855132,138.35370195920888,0.006319782550768653,20917.117308693178,1.0
9,2456423.0035897386,0.9503798606920668,21037.07439398295,1.0090057895391198,138.6183589148382,0.0063524645736891,20849.309897014555,1.0000000000000002
10,2456423.003612889,0.950386058107938,20943.920049022952,1.0052140145249084,138.60703227565918,0.006356221335856915,20835.28457263065,0.9999999999999998
11,2456423.0036360393,0.9503922555238091,20833.908099749187,0.999882502103634,138.14400963682766,0.0063346622589163844,20836.356327785637,1.0000000000000002
12,2456423.0036765067,0.9504030887538306,20591.482489826845,0.9853421036602824,150.5588603877341,0.006883652336625972,20897.800280060088,1.0
13,2456423.003699657,0.9504092861697018,20946.03386369457,1.0036602649318638,139.22270524209884,0.006373943082769107,20869.645432378005,1.0
14,2456423.0037228074,0.9504154835855729,20747.77012389471,0.9891309464340671,137.67820810791528,0.006271345830682176,20975.756747570027,1.0
15,2456423.0037459577,0.9504216810014441,20975.75946323735,1.000678249725293,137.87269775472637,0.006284463713906142,20961.542302928672,1.0
16,2456423.003769108,0.9504278784173152,20902.726286442783,0.996621712417891,137.70818025899572,0.006273361777848437,20973.581074940612,1.0
17,2456423.0037922584,0.9504340758331864,21071.094801628,1.005940401899791,138.22152109604406,0.006304839008105498,20946.663203738233,1.0
18,2456423.003815409,0.9504402732490007,20746.656174737098,0.9932747155449783,137.4861210558186,0.006289169698956903,20887.12805233753,1.0
19,2456423.003838559,0.9504464706648719,20811.58019622302,1.0009908047031661,137.55306294140686,0.00632133024709802,20790.980395064158,1.0
20,2456423.00386171,0.9504526682054006,20759.89965855678,0.9963038327282251,137.45717426589198,0.006302997663534695,20836.91638695094,1.0
21,2456423.0038848603,0.9504588656212718,20909.28010480683,1.002455960565354,137.97921751479177,0.006320523974862099,20858.053547823332,1.0
22,2456423.0039080107,0.950465063037143,20777.459646844978,0.9993389397959003,137.71661978234752,0.006328778565766546,20791.20388432823,1.0
23,2456423.0039311615,0.9504712605776717,21034.123518168206,1.0067427858573887,138.22053164302233,0.006320913523435129,20893.244842330376,0.9999999999999998
24,2456423.003954312,0.9504774579935429,20954.143999118613,1.0017194221127834,138.00752017350476,0.006303650204884251,20918.176823329464,0.9999999999999998
25,2456423.003977462,0.950483655409414,20803.66828837198,0.9992281836968279,137.7382891967899,0.006321099439799653,20819.73730104869,1.0
26,2456423.0040006125,0.9504898528252284,20573.845740684847,0.9849524114555823,137.28149524671912,0.006279498380032604,20888.162211086328,1.0
27,2456423.0040237634,0.9504960503657571,20651.674889769078,0.98657452342216,137.4387086275441,0.006273311690975181,20932.706449923335,1.0000000000000004
28,2456423.0040469137,0.9505022477816283,20801.381584004735,0.9934620591835115,137.77044698815774,0.006286781345208943,20938.27478535073,1.0
29,2456423.0040700636,0.9505084450728418,21238.6442330228,1.0154050157030075,138.9249752567485,0.006346087058472928,20916.42635654935,0.9999999999999997
30,2456423.004093214,0.950514642488713,20817.736669044683,0.9984178108764123,137.84637223798015,0.006316657561795473,20850.72646167124,0.9999999999999998
31,2456423.0041163648,0.9505208400292418,20963.196704532413,1.004090480266676,138.2322433126738,0.006326126609431951,20877.796489978482,1.0
32,2456423.004139515,0.9505270374451129,20865.064336412455,0.9985241832668654,137.93670780163717,0.006307131690389125,20895.90285950647,1.0
33,2456423.0041626655,0.9505332348609841,20809.81887819473,0.9945252906083534,137.81638417708223,0.006293055560430738,20924.373743643373,0.9999999999999998
34,2456423.0041858163,0.950539432401456,20793.386385087088,0.9911285575728332,137.80965086139807,0.006276211665863199,20979.504854554736,1.0
35,2456423.0042089666,0.9505456298173272,21058.037449755106,1.003349101792776,138.39817945454485,0.006300539420647143,20987.747347487308,1.0
36,2456423.004232117,0.9505518272331983,20764.183096244786,0.9897277135870166,137.86746514891865,0.006278788518753561,20979.692506528165,1.0
37,2456423.0042552673,0.9505580246490695,20883.88262971888,1.000201629941144,137.9574890964619,0.006312985312631155,20879.67266254882,0.9999999999999998
38,2456423.004278418,0.9505642221895982,20884.591842327834,1.0002203857474379,138.13692724895694,0.006321100340211727,20879.990190083296,1.0
39,2456423.0043015685,0.9505704196054694,20581.431490024937,0.9855645905756106,137.3931040842543,0.006286191874189247,20882.8844774187,0.9999999999999998
40,2456423.004324719,0.9505766170213406,20994.13393188703,1.0052005825666774,138.4624523994089,0.006334319584036594,20885.517075886135,1.0
41,2456423.0043478687,0.9505828143124972,20837.01827120517,0.9952858675200937,137.99301279090307,0.0062977083573282425,20935.71199109234,1.0
42,2456423.0043710195,0.950589011853026,20860.218378886268,0.9958489307442062,138.11175374224297,0.00629967919700393,20947.17153865622,1.0
43,2456423.00439417,0.9505952092688972,20823.861814961387,0.9929898636683534,138.05288765442174,0.006289877983353364,20970.87047599139,1.0
44,2456423.0044173202,0.9506014066847683,20901.644706379037,0.9994796196947155,138.21312555679205,0.006314746971785307,20912.52717365393,0.9999999999999998
45,2456423.004440471,0.9506076042252971,21022.99841323806,1.0054940993171875,138.41636991532403,0.0063253637808375505,20908.127086488512,1.0
46,2456423.0044636214,0.9506138016411683,20811.10377273721,0.99527482318537,137.87226328278211,0.006299962895986523,20909.906779447523,0.9999999999999997
47,2456423.0044867718,0.9506199990570394,20869.837196641325,0.9962957615645882,138.16118670531827,0.006301855777039135,20947.431477443224,1.0
48,2456423.004509922,0.9506261964729106,21190.723032898717,1.009605391810663,138.76521430097293,0.006316837140509285,20989.11436565776,1.0
49,2456423.004533073,0.9506323940133825,20976.917462215704,0.9993681252411075,138.35421344199503,0.006297807723890006,20990.18062753884,1.0
50,2456423.0045562233,0.9506385914292537,21066.17808427954,1.0006958464925777,138.51091911182053,0.0062865668843299655,21051.529451347425,1.0
51,2456423.0045793736,0.9506447888451248,21138.63153521133,1.0054520944097671,138.50286477954143,0.006294430667353275,21024.00666599674,1.0
52,2456423.0046256743,0.9506571836768671,21211.227297388894,1.0079518664981535,138.85383251277258,0.0063044187233967435,21043.88910065851,1.0
53,2456423.0046488247,0.9506633810927383,20997.07956702016,1.000417717533944,138.39131424871522,0.006300057273486843,20988.31238093075,1.0
54,2456423.004671975,0.9506695785086094,20964.496961382374,0.9989234249411202,138.3404892420943,0.006298110007442633,20987.09114026242,1.0
55,2456423.0046951254,0.9506757759244806,21199.500655515072,1.0097536919513652,138.8663286316815,0.0063197508268324305,20994.724579364196,1.0
56,2456423.004718276,0.9506819734649525,21095.614033812704,1.004318828928509,138.59544156730755,0.0063043681132799985,21004.89747495749,1.0
57,2456423.0047414266,0.9506881708808237,21318.75794097126,1.0140689622378836,139.12544500129974,0.00632303144661924,21022.986340025895,1.0
58,2456423.004764577,0.9506943682966948,20950.158243958722,0.997744051863294,138.33013379111824,0.006294508437591619,20997.527577171877,1.0
59,2456423.0047877277,0.9507005658372236,20997.79697862457,1.001288805102145,138.40124309354866,0.006305779822075896,20970.769743583132,1.0
60,2456423.004810878,0.9507067632530948,20957.52544114458,0.9985328126751962,138.43685767998124,0.006302128511281067,20988.319237098185,1.0
61,2456423.0048340284,0.9507129606689659,20967.390013611366,1.0036241067998952,138.45896838350512,0.006332292765516572,20891.67634729991,1.0
62,2456423.004857179,0.9507191580848371,20862.090917502832,1.0004564584571067,138.14817724956245,0.0063299269911270524,20852.572584394253,1.0
63,2456423.0048803296,0.9507253556253659,20823.281949550026,0.997888441076448,137.98617521024377,0.006318028383544736,20867.34457720285,0.9999999999999998
64,2456423.00490348,0.9507315530411802,20666.96521666683,0.9891603351185921,137.78301487449866,0.006300845800282282,20893.443138507,1.0
65,2456423.00492663,0.9507377503323937,20848.206521294684,1.0057213902504913,138.31966817240487,0.006375380479077237,20729.60436498432,1.0
66,2456423.00494978,0.9507439477482649,20498.711984835783,0.9883099326913107,137.26624606278116,0.006323296215241016,20741.177748780516,1.0
67,2456423.004972931,0.9507501452887936,20833.16129034072,1.0008508439512525,138.14179988689958,0.00634092296684212,20815.450590113527,1.0
68,2456423.0049960813,0.9507563427046648,20886.98220442066,0.9971950169157037,138.4312062373835,0.006314683520645984,20945.73463576213,1.0
69,2456423.0050192317,0.950762540120536,20832.83124855339,0.9931961372010293,137.99775282516524,0.006285964493308776,20975.545985572728,1.0
70,2456423.0050423825,0.9507687376610647,21031.282544724294,1.0031152199667597,138.38025138641876,0.006306267090036068,20965.968939661,1.0
71,2456423.005065533,0.9507749350769359,20806.85391347039,0.9932212197184623,137.97780235881325,0.006293061533994395,20948.86164370137,0.9999999999999998
72,2456423.005088683,0.9507811324927502,21061.307755346505,1.005704996085453,138.67002173257123,0.006326755340373881,20941.834670528933,1.0
73,2456423.0051118336,0.9507873299086214,20893.093260829668,0.9967173224694444,138.23480962314653,0.006300860513475745,20961.90443351121,1.0
74,2456423.0051349844,0.9507935274491501,20881.81195393912,0.9963363952750698,138.15729351244758,0.006298321342420041,20958.595965144923,0.9999999999999998
75,2456423.0051731938,0.9508037562083018,20829.884629385368,0.9954494033102589,151.1766974579194,0.006902880627735156,20925.106349069927,1.0
76,2456423.0051963446,0.9508099537488306,20995.0200451512,1.0037138664233856,139.4233729132312,0.006368576921292854,20917.335853856883,1.0
77,2456423.005219495,0.9508161511647018,20699.61533733777,0.9906335771079252,137.64705616108049,0.006294060021544467,20895.329833023254,1.0
78,2456423.0052426453,0.9508223485805729,20916.274948965747,1.0028385309890182,137.9028558953742,0.006317323450677453,20857.071505158186,1.0
79,2456423.005265795,0.9508285458717864,20751.677746224384,0.9917649401534401,137.39250295180824,0.006273815684752337,20923.988039962176,1.0
80,2456423.005288946,0.9508347434122584,20784.40551783831,0.9975024385240242,137.5652200688095,0.006308094481493933,20836.445822220143,1.0
81,2456423.0053120963,0.9508409408281295,20905.85398120916,1.0030938598045995,137.88861522842382,0.006321428830209041,20841.373692868157,1.0
82,2456423.0053352467,0.9508471382440007,21142.976436554887,1.0201268686997833,138.23856406487033,0.006372802478783788,20725.830370003834,0.9999999999999998
83,2456423.0053583975,0.9508533357845295,20712.670686227426,0.9988461292225376,137.3717331401135,0.0063295531571685906,20736.59804073061,1.0
84,2456423.005381548,0.9508595332004006,20324.21747447262,0.9816809785775437,136.5493476145123,0.006301723672226932,20703.485060821313,1.0
85,2456423.005404698,0.9508657306162718,20706.369536722414,0.9997051971622335,137.3690831921232,0.006336802514485148,20712.475633316284,1.0
86,2456423.0054278485,0.9508719280321429,20641.113751382596,0.9984597348224389,137.27606323004932,0.006344617253419325,20672.95558498742,1.0
87,2456423.0054509994,0.9508781255726717,20788.15475222657,0.9983289814587718,137.72218949635277,0.006319385357276622,20822.9502882413,1.0000000000000004
88,2456423.0054741497,0.950884322988486,20741.75740825004,0.9928586191883654,137.64158378669396,0.006295130019167293,20890.947620725554,1.0
89,2456423.0054973,0.9508905204043572,21175.544072817742,1.0154764431538703,138.64099119317373,0.006352433297351563,20852.816641467987,1.0000000000000004
90,2456423.0055204504,0.9508967178202283,20941.700664994452,1.0030267715873267,138.1073011906328,0.006320193853909286,20878.506195655624,1.0000000000000002
91,2456423.0055436012,0.9509029153607571,20821.886775668045,0.9959380542584504,137.89658258720112,0.0063020077525150755,20906.809099860613,1.0
92,2456423.005566751,0.9509091126519706,20799.830149674894,0.993993684221549,138.0069478782501,0.006301413383258073,20925.515403012225,1.0
93,2456423.0055899015,0.9509153100678418,21036.34542624029,1.0101666926789792,138.21536617797207,0.0063415038922420685,20824.62783488886,1.0
94,2456423.0056130523,0.9509215076083706,20736.87085944641,0.9931877359423321,137.6745779961249,0.006300210532618502,20879.10483486927,1.0
95,2456423.0056362026,0.9509277050242417,20891.139183525058,1.003839259217173,138.05248745501405,0.006338105642364101,20811.239440681627,1.0
96,2456423.005659353,0.950933902440056,20942.679115480776,1.0064402649585977,138.12782827530017,0.006342348936723556,20808.66579433038,1.0
97,2456423.0056825033,0.9509400998559272,20696.31700681312,0.9947086759885717,137.65904268479696,0.006321509085624989,20806.410466104047,1.0
98,2456423.005705654,0.950946297396456,20591.31266294194,0.988770632208746,137.6089433699355,0.00631351721876604,20825.166112533545,1.0000000000000004
99,2456423.0057288045,0.9509524948123271,20766.88073282681,0.9975318769389047,137.93612872919596,0.006330627070879927,20818.26276725461,1.0
100,2456423.005751955,0.9509586922281983,20663.00580787952,0.9933832387402733,137.56498105753553,0.006318942540031863,20800.638667995485,1.0
101,2456423.005775105,0.9509648896440694,20774.863367687376,0.9999319660987399,137.88771836365217,0.0063411940694926795,20776.276858855745,1.0
102,2456423.005798256,0.9509710871845982,20610.145961057464,0.9977062563238526,137.38233003975114,0.006354270362530337,20657.52903765241,1.0
103,2456423.0058214064,0.9509772846004694,20680.68104775072,1.0016632091482336,137.5507227440551,0.006365506206437791,20646.341863086476,1.0
104,2456423.0058445563,0.9509834818916261,20964.21086090455,1.009476787978053,138.22206611887998,0.006359286359207909,20767.402589707028,1.0
105,2456423.0058677066,0.9509896793074972,20713.556749994146,0.9952007401710327,137.76591129404866,0.0063242781790859275,20813.44588473112,1.0
106,2456423.0058908574,0.950995876848026,20692.3967798675,0.9950301360918228,137.7377422260263,0.006328365874743049,20795.748821378387,1.0
107,2456423.005914008,0.9510020742638972,20664.651024384864,0.9934239569814831,137.60633326354787,0.0063205978554244395,20801.442203160037,1.0
108,2456423.005937158,0.9510082716797683,20837.571459224375,1.0002550895959226,138.07498862354146,0.0063327430531681965,20832.257367110444,1.0
109,2456423.0059834593,0.9510206666361682,20802.64316762073,1.0021049287411625,138.0035140798093,0.006351817437938021,20758.947063310894,1.0
110,2456423.006052911,0.9510392590083825,20561.739613289177,0.9914039869170996,137.3194789545542,0.006326101215866368,20740.02110605646,0.9999999999999997
111,2456423.0060992115,0.9510516538401248,20682.532449518727,0.9929650894472537,137.79426938640543,0.006320837208148602,20829.063044937375,1.0
112,2456423.0061223614,0.9510578511313383,20815.4841098531,0.9985233678997335,138.16156815677434,0.0063324556134760415,20846.26637595454,1.0
113,2456423.006145512,0.9510640486718671,21012.34729065746,1.007194565922684,138.47977642634316,0.006342176745120476,20862.252440180902,0.9999999999999998
114,2456423.0061686626,0.9510702460877383,21062.425863092485,1.0071448273318577,138.5594930444185,0.006330427014859685,20913.006045904407,1.0000000000000002
115,2456423.006191813,0.9510764435035526,20892.214481582712,1.0044687068094218,138.08627810279035,0.006343305719921001,20799.26864814376,1.0
116,2456423.0062149637,0.9510826410440814,20733.78525846089,0.9939277134378768,137.85559442311444,0.006314133827729807,20860.455924651924,1.0000000000000002
117,2456423.006238114,0.9510888384599525,20738.863808282553,0.992525368670531,137.86591409503322,0.0063041529949497185,20895.046578065678,1.0
118,2456423.0062612644,0.9510950358758237,20735.266310841987,0.991070867590294,137.97281263486835,0.006300888490372508,20922.08235447184,1.0
119,2456423.006284415,0.9511012332916948,20834.65567120323,0.9947247992798413,138.05391044679783,0.006297649907685658,20945.145517923207,1.0
120,2456423.0063770167,0.9511260230797802,21119.704079146843,1.0051357992025802,138.40243046526388,0.006293522839580411,21011.7917359048,1.0
121,2456423.0064233174,0.9511384179115225,20912.366368770643,0.9969723999983945,138.33215189840195,0.006301098563118734,20975.872921661936,0.9999999999999997
122,2456423.0064464677,0.9511446153273937,21071.91207092867,1.0013215551653747,138.42676691499938,0.006284965221907205,21044.10113037915,1.0
123,2456423.0064696185,0.9511508128679225,21040.489937421517,1.0031290082764077,138.42537630523637,0.0063056496519765595,20974.85942867271,0.9999999999999998
124,2456423.006492769,0.9511570102837936,20840.79856000442,0.9960417768139365,138.26259929721417,0.006313658666862699,20923.61891352429,1.0
125,2456423.006515919,0.9511632076996648,20984.174279574272,1.001870081461775,138.16635485600074,0.006302821481046237,20945.005413234205,0.9999999999999998
126,2456423.0065622204,0.9511756026560079,21043.547946019924,1.0057215452582675,138.46903823512045,0.006323021365584924,20923.831298270514,1.0
127,2456423.0065853707,0.951181800071879,20638.359231029433,0.98774632789646,137.5218186473896,0.006288615570493748,20894.392262618298,0.9999999999999998
128,2456423.006608521,0.9511879974877502,20916.564599024903,0.9976387345996666,138.27242676011096,0.0063013226129667475,20966.071057193185,1.0
129,2456423.0066316715,0.9511941949036213,20965.689111848096,1.0011951520313522,138.35938668335277,0.006312936312224876,20940.66183731536,0.9999999999999997
130,2456423.0066710967,0.9512047491471094,20540.32336090217,0.9845343402734239,150.56086778141471,0.006895232029711701,20862.983159325588,1.0
131,2456423.006694247,0.9512109465629806,21025.357224509342,1.0109676912246068,139.3917340290089,0.006403893449528926,20797.259306121716,1.0
132,2456423.006717398,0.9512171441034525,21074.000976253403,1.0106757671451643,138.55329807867776,0.0063488476898113655,20851.396324442125,1.0
133,2456423.006740548,0.9512233415193236,20712.8985891134,0.9926559624200337,137.3178587174937,0.006287790781015432,20866.140307681868,1.0000000000000002
134,2456423.0067636985,0.9512295389351948,20966.470072731478,1.002089295026736,137.91871161868823,0.006298214958580885,20922.756262127405,0.9999999999999998
135,2456423.006786849,0.951235736351066,20754.92382333531,0.9916813264207961,137.38805812471725,0.006272102690352745,20929.025555260338,1.0
136,2456423.0068099997,0.9512419338915947,21068.084287192138,1.0078525461143955,138.1410529750081,0.006314048239180579,20903.935172279475,0.9999999999999998
